Percentage Depth Doses,,,,
Wedge 60,,,,
SSD=100cm,,,,
Detector: IBA Dosimetry CC13 Ionization chamber,,,,
Detector offset of -1.8mm (0.6*rcav) applied,,,,
Depth [cm],4x4cm2,10x10cm2,15x15cm2,15x40cm2
0,24,31.1,38.2,49
0.1,27.3,34.699999999999996,41.925,52.55
0.2,33.05,40.325,46.925,57.8
0.3,41.733333333333334,48.775,54.8,64.86666666666667
0.4,50.1,56.24,62,70.85000000000001
0.5,57.25,62.400000000000006,68.2,75.8
0.6,63.4,67.9,73.125,80.3
0.7,68.45,72.85,77.4,83.8
0.8,72.82000000000001,76.7,81.03333333333333,86.6
0.9,76.875,80.46666666666667,83.95,89.3
1,80.3,83.325,86.65,91.27499999999999
1.1,83.275,85.95,89,93.05000000000001
1.2,85.8,88.275,90.93333333333332,94.55
1.3,88,90.175,92.7,95.725
1.4,89.9,91.675,94,96.85
1.5,91.7,93.4,95.2,97.5
1.6,93.2,94.55000000000001,96.2,98.2
1.7,94.44999999999999,95.8,97.1,98.8
1.8,95.375,96.7,97.9,99.36666666666667
1.9,96.75999999999999,97.3,98.35,99.55
2,97.35,98,98.86666666666667,99.8
2.1,97.85000000000001,98.5,99.25,99.9
2.2,98.675,98.95,99.5,100
2.3,99.025,99.2,99.7,100
2.4,99.43333333333334,99.525,99.82,100
2.5,99.6,99.7,99.9,100
2.6,99.8,99.8,100,99.88000000000001
2.7,99.85,99.9,100,99.8
2.8,99.93333333333334,100,99.9,99.6
2.9,100,100,99.8,99.4
3,99.9,99.9,99.7,99.19999999999999
3.1,99.9,99.825,99.525,99
3.2,99.8,99.77499999999999,99.375,98.65
3.3,99.675,99.625,99.14999999999999,98.42
3.4,99.5,99.4,99,98.175
3.5,99.3,99.2,98.825,97.92500000000001
3.6,99.14999999999999,98.94,98.53333333333333,97.675
3.7,98.9,98.68,98.3,97.25
3.8,98.5,98.45,98,96.975
3.9,98.15,98.1,97.65,96.69999999999999
4,97.9,97.8,97.45,96.4
4.1,97.7,97.45,97.13333333333334,96.06
4.2,97.35,97.22,96.75,95.69999999999999
4.3,97,96.93333333333334,96.35000000000001,95.3
4.4,96.55,96.55,96.125,95
4.5,96.05,96.23333333333333,95.75,94.69999999999999
4.6,95.65,95.83333333333333,95.46666666666667,94.4
4.7,95.3,95.63333333333333,95.06666666666666,94.03333333333333
4.8,95,95.3,94.75,93.73333333333333
4.9,94.65,94.85,94.5,93.42500000000001
5,94.3,94.5,94.06666666666666,93.05
5.1,93.66666666666666,94.13333333333334,93.7,92.53999999999999
5.2,93.32,93.77499999999999,93.26666666666667,92.2
5.3,92.95,93.42500000000001,92.98,91.9
5.4,92.5,93.1,92.65,91.625
5.5,92.11999999999999,92.825,92.3,91.27499999999999
5.6,91.75,92.5,91.93333333333334,91
5.7,91.3,92,91.6,90.63333333333333
5.8,91.1,91.7,91.375,90.36666666666667
5.9,90.84,91.3,91.025,89.9
6,90.4,90.93333333333334,90.55,89.55
6.1,89.78,90.525,90.22500000000001,89.3
6.2,89.5,90.1,89.96666666666667,88.875
6.3,89.07499999999999,89.75,89.6,88.6
6.4,88.725,89.35,89.25,88.19999999999999
6.5,88.275,89.11999999999999,88.8,87.95
6.6,87.9,88.75,88.5,87.625
6.7,87.46666666666667,88.375,88.225,87.275
6.8,86.9,88.02499999999999,87.86000000000001,86.95
6.9,86.6,87.8,87.55,86.75
7,86.05,87.5,87.1,86.3
7.1,85.675,87,86.86666666666667,86
7.2,85.45,86.6,86.6,85.66666666666666
7.3,84.9,86.3,86.14999999999999,85.325
7.4,84.69999999999999,85.875,85.775,85.03333333333333
7.5,84.3,85.5,85.55,84.7
7.6,84.075,85.18,85.2,84.425
7.7,83.6,84.9,84.95,84.16000000000001
7.8,83.125,84.5,84.7,83.75
7.9,82.625,84.225,84.28,83.4
8,82.3,83.86666666666667,83.825,83.2
8.1,81.9,83.55,83.55,82.75
8.2,81.65,83.2,83.17999999999999,82.45
8.3,81.3,82.9,82.72,82.125
8.4,80.9,82.6,82.5,81.875
8.5,80.43333333333334,82.1,82.23333333333333,81.48
8.6,80,81.8,81.925,81.16666666666667
8.7,79.65,81.52,81.6,80.85
8.8,79.3,81.225,81.25,80.61999999999999
8.9,79,80.8,80.925,80.3
9,78.65,80.5,80.6,80
9.1,78.1,80.05,80.4,79.775
9.2,77.66666666666666,79.625,80.075,79.35
9.3,77.4,79.35,79.725,79.1
9.4,77.13333333333333,79.15,79.275,78.85
9.5,76.66666666666667,78.74,79.05,78.4
9.6,76.30000000000001,78.5,78.8,78.075
9.7,76.05,78.03333333333333,78.63333333333333,77.725
9.8,75.73333333333333,77.6,78.13333333333334,77.4
9.9,75.36666666666666,77.35,77.73333333333333,77.075
10,74.97500000000001,77.06666666666666,77.425,76.8
10.1,74.74,76.73333333333333,77.13333333333333,76.6
10.2,74.3,76.38000000000001,76.9,76.4
10.3,73.95,76.1,76.55,76.1
10.4,73.65,75.86000000000001,76.28,75.65
10.5,73.35,75.55,76.05,75.425
10.6,73.1,75.2,75.8,75.15
10.7,72.66666666666667,74.9,75.52,74.925
10.8,72.225,74.53333333333333,75.125,74.47500000000001
10.9,71.9,74.23333333333333,74.75,74.24
11,71.55000000000001,73.875,74.47500000000001,73.95
11.1,71.2,73.64,74.175,73.73333333333333
11.2,70.96666666666667,73.3,73.85,73.5
11.3,70.6,73.02499999999999,73.56,73.19999999999999
11.4,70.275,72.69999999999999,73.25,72.8
11.5,70.03999999999999,72.45,72.95,72.575
11.6,69.7,72.1,72.75,72.325
11.7,69.43333333333334,71.8,72.325,72.06666666666666
11.8,69.1,71.45,72.02499999999999,71.80000000000001
11.9,68.66,71.075,71.825,71.46666666666667
12,68.25,70.825,71.6,71.1
12.1,68,70.575,71.25,70.9
12.2,67.73333333333333,70.35,70.96666666666667,70.7
12.3,67.3,69.9,70.675,70.325
12.4,67.1,69.65,70.4,69.97500000000001
12.5,66.83333333333333,69.4,70.075,69.8
12.6,66.56666666666666,69.05,69.825,69.63333333333333
12.7,66.2,68.8,69.575,69.3
12.8,65.875,68.53333333333333,69.25,69.1
12.9,65.625,68.2,68.93333333333334,68.66666666666667
13,65.28,67.8,68.66,68.43333333333334
13.1,65.05,67.6,68.4,68.1
13.2,64.76666666666667,67.4,68.1,67.8
13.3,64.36666666666667,67.1,67.7,67.6
13.4,64,66.875,67.53333333333333,67.3
13.5,63.72,66.5,67.35000000000001,67.15
13.6,63.4,66.2,67.05,66.8
13.7,63.225,65.925,66.83333333333333,66.63333333333333
13.8,63.04,65.65,66.6,66.36666666666667
13.9,62.733333333333334,65.225,66.3,66.175
14,62.4,65,65.97500000000001,65.75
14.1,62.1,64.8,65.66666666666667,65.47500000000001
14.2,61.675000000000004,64.5,65.5,65.33333333333333
14.3,61.4,64.325,65.26666666666667,65
14.4,61.3,63.95,65.03333333333333,64.75
14.5,60.766666666666666,63.625,64.725,64.5
14.6,60.425,63.28,64.48,64.3
14.7,60.16666666666667,63.1,64.3,63.93333333333333
14.8,60,62.9,63.975,63.775
14.9,59.7,62.675000000000004,63.65,63.580000000000005
15,59.5,62.324999999999996,63.375,63.349999999999994
15.1,59.3,62.075,63.05,63
15.2,58.95,61.824999999999996,62.78,62.75
15.3,58.75,61.5,62.55,62.519999999999996
15.4,58.4,61.2,62.4,62.233333333333334
15.5,58.160000000000004,60.9,62.150000000000006,62.02
15.6,57.875,60.7,62,61.7
15.7,57.575,60.525,61.733333333333334,61.525
15.8,57.2,60.1,61.25,61.3
15.9,56.9,59.9,61.075,60.95
16,56.7,59.7,60.849999999999994,60.8
16.1,56.45,59.5,60.7,60.55
16.2,56.275,59.3,60.36666666666667,60.4
16.3,55.925,59,60.1,60.225
16.4,55.675000000000004,58.7,59.9,59.85
16.5,55.5,58.46666666666667,59.7,59.525
16.6,55.28,58.225,59.38,59.4
16.7,55.05,57.875,59.150000000000006,59.17999999999999
16.8,54.65,57.7,58.875,58.9
16.9,54.3,57.46666666666667,58.650000000000006,58.7
17,54.160000000000004,57.175000000000004,58.4,58.45
17.1,53.925,57,58.16666666666667,58.2
17.2,53.650000000000006,56.7,57.9,58
17.3,53.375,56.5,57.66666666666667,57.78
17.4,53.14,56.3,57.425,57.5
17.5,52.86666666666667,56.15,57.175000000000004,57.2
17.6,52.63333333333333,55.875,57,57.075
17.7,52.4,55.625,56.775,56.824999999999996
17.8,52.2,55.375,56.5,56.6
17.9,52,55.125,56.3,56.4
18,51.8,54.9,56,56.2
18.1,51.525,54.650000000000006,55.875,56.025
18.2,51.3,54.4,55.56666666666667,55.775
18.3,51,54.239999999999995,55.4,55.5
18.4,50.725,54,55.2,55.3
18.5,50.53333333333333,53.8,55,55.1
18.6,50.4,53.62,54.775,54.86
18.7,50.1,53.25,54.5,54.650000000000006
18.8,49.849999999999994,53,54.3,54.525
18.9,49.62,52.775,54.075,54.2
19,49.375,52.5,53.8,53.980000000000004
19.1,49.125,52.2,53.63333333333333,53.733333333333334
19.2,48.9,52.05,53.4,53.4
19.3,48.75,51.81999999999999,53.25,53.3
19.4,48.375,51.575,53,53.13333333333333
19.5,48.175000000000004,51.4,52.8,52.96666666666667
19.6,48.03333333333333,51.16666666666667,52.6,52.725
19.7,47.7,50.96666666666667,52.349999999999994,52.475
19.8,47.575,50.7,52.13333333333333,52.239999999999995
19.9,47.4,50.46666666666667,51.875,52.025
20,47.266666666666666,50.3,51.625,51.8
20.1,47.1,50.025,51.475,51.650000000000006
20.2,46.849999999999994,49.9,51.225,51.5
20.3,46.675000000000004,49.675000000000004,51.1,51.25
20.4,46.45,49.575,50.9,51.06666666666667
20.5,46.14,49.324999999999996,50.7,50.9
20.6,45.875,49.2,50.5,50.7
20.7,45.6,48.849999999999994,50.3,50.5
20.8,45.43333333333333,48.650000000000006,50.075,50.3
20.9,45.28,48.4,49.849999999999994,50.06
21,45.06666666666667,48.2,49.675000000000004,49.925
21.1,44.9,48,49.375,49.7
21.2,44.75,47.75,49.266666666666666,49.525
21.3,44.5,47.525,49,49.3
21.4,44.4,47.375,48.775,49.2
21.5,44.1,47.239999999999995,48.625,48.96666666666667
21.6,43.9,47.1,48.4,48.7
21.7,43.7,46.849999999999994,48.3,48.575
21.8,43.5,46.7,48.1,48.324999999999996
21.9,43.3,46.5,47.849999999999994,48.06
22,43.1,46.275,47.7,47.925
22.1,42.9,46,47.4,47.775
22.2,42.775,45.81999999999999,47.239999999999995,47.650000000000006
22.3,42.5,45.56666666666667,47.06666666666667,47.4
22.4,42.275,45.349999999999994,46.8,47.2
22.5,42.1,45.2,46.6,47
22.6,41.9,45.05,46.5,46.824999999999996
22.7,41.75,44.824999999999996,46.349999999999994,46.6
22.8,41.6,44.56666666666667,46.1,46.4
22.9,41.4,44.4,45.95,46.3
23,41.25,44.3,45.7,46.125
23.1,41.1,44.1,45.56666666666667,45.875
23.2,40.8,43.925,45.3,45.7
23.3,40.7,43.8,45.1,45.53333333333333
23.4,40.55,43.650000000000006,44.9,45.375
23.5,40.275,43.4,44.766666666666666,45.2
23.6,40.125,43.1,44.6,44.980000000000004
23.7,39.9,42.975,44.43333333333333,44.86666666666667
23.8,39.7,42.824999999999996,44.3,44.6
23.9,39.5,42.575,44.1,44.45
24,39.33333333333333,42.4,43.849999999999994,44.25
24.1,39.175000000000004,42.2,43.7,44.1
24.2,39,42.025,43.575,43.9
24.3,38.8,41.86666666666667,43.4,43.8
24.4,38.6,41.6,43.3,43.625
24.5,38.4,41.5,43.1,43.3
24.6,38.3,41.33333333333333,42.83333333333333,43.2
24.7,38.150000000000006,41.2,42.625,42.9
24.8,38.025,41,42.475,42.8
24.9,37.875,40.8,42.324999999999996,42.625
25,37.7,40.64,42.2,42.56
25.1,37.575,40.43333333333333,42,42.4
25.2,37.425,40.349999999999994,41.8,42.3
25.3,37.2,40.16666666666667,41.650000000000006,42.1
25.4,36.95,40,41.5,41.849999999999994
25.5,36.8,39.8,41.3,41.7
25.6,36.63333333333334,39.63333333333334,41.12500000000001,41.55
25.7,36.4,39.43333333333334,40.96666666666666,41.42
25.8,36.22500000000001,39.2,40.8,41.2
25.9,36.175,39.1,40.6,41.03333333333334
26,36.025000000000006,38.93333333333334,40.45,40.9
26.1,35.87499999999999,38.8,40.3,40.650000000000006
26.2,35.64,38.6,40.1,40.5
26.3,35.6,38.53333333333334,39.95,40.4
26.4,35.4,38.3,39.8,40.25
26.5,35.2,38.150000000000006,39.62500000000001,40.05
26.6,34.974999999999994,38,39.48,39.9
26.7,34.8,37.8,39.3,39.8
26.8,34.7,37.62500000000001,39.1,39.6
26.9,34.6,37.474999999999994,39,39.45
27,34.4,37.3,38.825,39.3
27.1,34.3,37.2,38.7,39.1
27.2,34.1,37.1,38.5,39
27.3,33.93333333333334,36.849999999999994,38.3,38.833333333333336
27.4,33.8,36.7,38.2,38.675
27.5,33.666666666666664,36.574999999999996,38.1,38.46666666666666
27.6,33.4,36.4,37.9,38.3
27.7,33.3,36.3,37.75,38.2
27.8,33.2,36.150000000000006,37.63333333333334,38.1
27.9,33.1,36,37.5,37.9
28,32.9,35.849999999999994,37.27499999999999,37.8
28.1,32.720000000000006,35.7,37.12500000000001,37.6
28.2,32.574999999999996,35.474999999999994,37,37.425000000000004
28.3,32.425000000000004,35.4,36.825,37.26666666666666
28.4,32.3,35.175,36.7,37.1
28.5,32.150000000000006,35,36.5,37
28.6,32,34.9,36.4,36.9
28.7,31.83333333333334,34.7,36.3,36.7
28.8,31.8,34.6,36.1,36.6
28.9,31.574999999999996,34.45,36,36.4
29,31.4,34.36666666666666,35.86666666666666,36.3
29.1,31.2,34.2,35.675,36.1
29.2,31,34.1,35.5,36
29.3,30.9,33.9,35.45,35.825
29.4,30.9,33.779999999999994,35.27499999999999,35.7
29.5,30.8,33.6,35.1,35.6
29.6,30.6,33.46666666666666,34.974999999999994,35.5
29.7,30.5,33.32,34.8,35.325
29.8,30.275,33.1,34.7,35.2
29.9,30.16666666666666,33,34.53333333333334,35.1
30,30.074999999999996,32.87499999999999,34.4,34.9
