Depth [cm]	3x3cm2	4x4cm2	6x6cm2	8x8cm2	10x10cm2	20x20cm2	30x30cm2	40x40cm2
0	57.1	57.7	58.8	60.1	61.2	66.2	69.5	72.0
0.1	61.2	61.7	62.9	63.9	65.2	70.0	73.1	75.5
0.2	67.7	67.9	69.1	70.4	71.3	75.4	78.4	80.9
0.3	76.8	77.0	78.0	78.9	79.4	82.5	84.8	87.0
0.4	83.6	84.2	84.7	84.7	85.7	88.2	89.8	91.2
0.5	88.9	89.1	89.4	89.6	90.1	92.2	93.3	94.4
0.6	92.4	92.6	92.8	93.0	93.4	94.9	95.6	96.3
0.7	95.1	95.1	95.3	95.4	95.6	96.7	97.3	97.8
0.8	96.9	96.9	97.0	97.2	97.3	98.0	98.4	98.8
0.9	98.2	98.2	98.2	98.3	98.4	99.0	99.2	99.4
1	99.0	99.0	99.0	99.2	99.2	99.6	99.7	99.8
1.1	99.7	99.7	99.7	99.7	99.7	99.9	99.9	100.0
1.2	99.9	99.9	100.0	100.0	100.0	100.0	100.0	100.0
1.3	100.0	100.0	100.0	100.0	100.0	100.0	100.0	100.0
1.4	100.0	100.0	100.0	100.0	100.0	100.0	99.9	99.9
1.5	99.8	99.8	99.9	99.9	99.9	99.9	99.7	99.7
1.6	99.5	99.6	99.7	99.6	99.7	99.5	99.6	99.5
1.7	99.2	99.3	99.4	99.4	99.4	99.3	99.3	99.2
1.8	98.8	98.9	99.1	99.0	99.1	99.0	99.0	98.9
1.9	98.3	98.5	98.6	98.6	98.6	98.6	98.6	98.6
2	97.8	98.0	98.2	98.3	98.3	98.2	98.2	98.2
2.1	97.2	97.5	97.8	97.9	97.9	97.9	97.9	97.9
2.2	96.7	97.0	97.3	97.3	97.5	97.5	97.6	97.4
2.3	96.1	96.5	96.7	96.9	97.0	97.1	97.1	97.1
2.4	95.6	95.9	96.3	96.5	96.6	96.7	96.7	96.7
2.5	95.0	95.4	95.9	96.0	96.2	96.3	96.4	96.3
2.6	94.4	94.9	95.3	95.7	95.7	95.9	96.0	95.9
2.7	93.8	94.3	94.8	95.1	95.3	95.5	95.6	95.5
2.8	93.3	93.8	94.4	94.6	94.8	95.2	95.3	95.1
2.9	92.6	93.2	93.9	94.1	94.4	94.7	94.9	94.8
3	92.1	92.6	93.3	93.7	93.9	94.3	94.5	94.4
3.1	91.4	92.0	92.8	93.2	93.4	93.9	94.1	94.0
3.2	90.8	91.4	92.3	92.7	93.0	93.4	93.7	93.6
3.3	90.3	91.0	91.7	92.2	92.5	93.1	93.2	93.2
3.4	89.7	90.4	91.2	91.8	92.0	92.7	92.9	92.8
3.5	89.1	89.9	90.8	91.3	91.6	92.3	92.5	92.4
3.6	88.5	89.3	90.2	90.7	91.2	91.8	92.0	92.1
3.7	87.9	88.7	89.7	90.3	90.6	91.4	91.7	91.7
3.8	87.4	88.2	89.2	89.8	90.2	91.0	91.3	91.3
3.9	86.8	87.6	88.7	89.3	89.8	90.6	90.9	90.8
4	86.3	87.1	88.2	88.8	89.2	90.2	90.4	90.5
4.1	85.7	86.5	87.7	88.4	88.8	89.7	90.0	90.2
4.2	85.1	86.1	87.2	87.9	88.4	89.3	89.7	89.7
4.3	84.5	85.4	86.6	87.4	87.9	88.9	89.2	89.4
4.4	83.9	84.9	86.2	87.0	87.4	88.5	88.9	88.8
4.5	83.4	84.3	85.6	86.4	86.9	88.0	88.5	88.5
4.6	82.8	83.7	85.2	85.9	86.4	87.6	88.1	88.1
4.7	82.1	83.2	84.6	85.5	86.0	87.2	87.6	87.8
4.8	81.6	82.7	84.1	84.9	85.5	86.7	87.3	87.4
4.9	81.0	82.0	83.6	84.5	85.0	86.4	86.9	86.9
5	80.4	81.5	83.0	84.1	84.6	85.9	86.4	86.5
5.1	79.9	81.0	82.6	83.5	84.1	85.6	86.0	86.2
5.2	79.4	80.5	82.0	82.9	83.7	85.0	85.6	85.7
5.3	78.9	79.9	81.6	82.5	83.2	84.7	85.2	85.4
5.4	78.3	79.4	81.0	82.0	82.7	84.2	84.8	84.9
5.5	77.7	78.9	80.6	81.5	82.3	83.9	84.4	84.6
5.6	77.2	78.4	80.0	81.1	81.9	83.4	84.1	84.2
5.7	76.7	77.8	79.6	80.6	81.4	83.0	83.6	83.8
5.8	76.1	77.3	79.1	80.2	80.9	82.7	83.3	83.4
5.9	75.7	76.8	78.6	79.8	80.5	82.3	82.9	83.1
6	75.2	76.3	78.1	79.3	80.1	81.8	82.5	82.6
6.1	74.6	75.9	77.7	78.8	79.7	81.5	82.1	82.3
6.2	74.1	75.4	77.2	78.3	79.2	81.1	81.7	81.9
6.3	73.6	74.9	76.7	77.9	78.8	80.6	81.3	81.5
6.4	73.1	74.4	76.2	77.5	78.3	80.3	80.9	81.1
6.5	72.6	74.0	75.6	77.0	77.9	79.9	80.6	80.8
6.6	72.1	73.4	75.3	76.6	77.5	79.5	80.2	80.4
6.7	71.6	72.9	74.8	76.1	77.0	79.0	79.8	80.0
6.8	71.2	72.4	74.4	75.7	76.6	78.7	79.5	79.7
6.9	70.7	71.9	73.9	75.2	76.1	78.2	79.0	79.2
7	70.2	71.6	73.5	74.8	75.7	77.9	78.7	78.9
7.1	69.8	71.1	73.0	74.4	75.3	77.5	78.3	78.4
7.2	69.3	70.6	72.5	73.9	74.9	77.1	77.9	78.1
7.3	68.8	70.1	72.1	73.5	74.5	76.7	77.5	77.7
7.4	68.3	69.7	71.7	73.0	74.0	76.4	77.1	77.3
7.5	67.8	69.2	71.3	72.6	73.7	76.0	76.8	77.0
7.6	67.4	68.7	70.8	72.2	73.2	75.5	76.5	76.6
7.7	66.8	68.3	70.3	71.8	72.8	75.2	76.0	76.3
7.8	66.5	67.8	69.9	71.4	72.4	74.8	75.7	75.9
7.9	66.0	67.3	69.4	70.9	71.9	74.5	75.3	75.6
8	65.5	66.9	69.0	70.5	71.6	74.1	74.9	75.2
8.1	65.1	66.5	68.6	70.0	71.2	73.7	74.6	74.8
8.2	64.6	66.0	68.2	69.7	70.7	73.3	74.2	74.5
8.3	64.2	65.6	67.7	69.2	70.3	72.9	73.8	74.1
8.4	63.8	65.2	67.3	68.8	69.9	72.5	73.4	73.8
8.5	63.4	64.7	66.9	68.4	69.5	72.1	73.1	73.4
8.6	62.9	64.3	66.4	68.0	69.1	71.8	72.8	73.1
8.7	62.4	63.8	65.9	67.6	68.7	71.4	72.4	72.7
8.8	62.0	63.4	65.5	67.2	68.3	71.0	72.1	72.3
8.9	61.6	63.0	65.2	66.7	67.9	70.7	71.6	72.0
9	61.1	62.5	64.7	66.3	67.5	70.3	71.3	71.7
9.1	60.8	62.1	64.3	65.9	67.1	69.9	70.9	71.3
9.2	60.2	61.8	63.8	65.5	66.7	69.6	70.6	71.0
9.3	59.9	61.3	63.4	65.1	66.3	69.1	70.2	70.5
9.4	59.5	60.9	63.1	64.7	65.9	68.8	69.8	70.2
9.5	59.0	60.4	62.6	64.3	65.5	68.4	69.4	69.9
9.6	58.6	60.0	62.2	63.8	65.1	68.1	69.1	69.5
9.7	58.2	59.6	61.8	63.4	64.7	67.7	68.8	69.2
9.8	57.7	59.2	61.4	63.1	64.2	67.3	68.4	68.8
9.9	57.4	58.7	61.0	62.7	63.9	66.9	68.1	68.5
10	57.0	58.4	60.5	62.3	63.5	66.5	67.7	68.2
10.1	56.5	58.0	60.2	61.9	63.1	66.2	67.3	67.8
10.2	56.2	57.6	59.8	61.5	62.7	65.8	67.0	67.5
10.3	55.8	57.2	59.3	61.1	62.3	65.5	66.6	67.1
10.4	55.4	56.8	59.0	60.7	62.0	65.1	66.3	66.8
10.5	55.0	56.4	58.6	60.3	61.6	64.7	65.9	66.4
10.6	54.7	56.1	58.3	59.9	61.2	64.5	65.6	66.0
10.7	54.3	55.7	57.9	59.6	60.9	64.1	65.3	65.8
10.8	53.9	55.3	57.6	59.2	60.5	63.8	65.0	65.4
10.9	53.6	54.9	57.2	58.9	60.2	63.4	64.6	65.1
11	53.2	54.5	56.8	58.5	59.8	63.1	64.3	64.7
11.1	52.8	54.2	56.5	58.2	59.5	62.8	64.0	64.4
11.2	52.4	53.9	56.1	57.8	59.1	62.5	63.7	64.1
11.3	52.1	53.5	55.7	57.5	58.8	62.1	63.4	63.8
11.4	51.8	53.1	55.4	57.1	58.4	61.8	63.0	63.5
11.5	51.4	52.7	55.1	56.8	58.1	61.5	62.7	63.2
11.6	51.0	52.5	54.6	56.5	57.8	61.1	62.4	62.9
11.7	50.7	52.1	54.3	56.0	57.4	60.8	62.1	62.5
11.8	50.4	51.7	54.0	55.7	57.0	60.5	61.7	62.2
11.9	50.1	51.4	53.7	55.4	56.7	60.2	61.4	61.9
12	49.7	51.0	53.3	55.1	56.4	59.8	61.1	61.5
12.1	49.4	50.7	52.9	54.7	56.1	59.4	60.8	61.3
12.2	49.0	50.3	52.6	54.3	55.7	59.1	60.4	61.0
12.3	48.8	50.1	52.3	54.0	55.4	58.8	60.1	60.7
12.4	48.5	49.7	51.9	53.7	55.1	58.6	59.9	60.3
12.5	48.1	49.3	51.6	53.4	54.7	58.2	59.5	60.0
12.6	47.7	49.1	51.3	53.0	54.4	57.9	59.2	59.7
12.7	47.4	48.7	50.9	52.7	54.0	57.6	58.9	59.4
12.8	47.1	48.4	50.6	52.4	53.8	57.2	58.6	59.1
12.9	46.8	48.1	50.3	52.1	53.4	57.0	58.4	58.8
13	46.4	47.8	49.9	51.8	53.1	56.6	58.0	58.5
13.1	46.1	47.4	49.7	51.4	52.8	56.4	57.7	58.2
13.2	45.9	47.1	49.4	51.1	52.4	56.0	57.4	57.9
13.3	45.5	46.8	49.0	50.7	52.1	55.7	57.1	57.6
13.4	45.2	46.5	48.7	50.4	51.8	55.4	56.8	57.3
13.5	44.9	46.1	48.4	50.1	51.5	55.1	56.6	57.0
13.6	44.7	45.9	48.0	49.9	51.3	54.7	56.3	56.8
13.7	44.3	45.6	47.8	49.6	50.9	54.5	56.0	56.5
13.8	44.1	45.3	47.5	49.2	50.6	54.2	55.7	56.1
13.9	43.7	45.0	47.1	48.9	50.3	53.9	55.3	55.9
14	43.5	44.7	46.9	48.6	50.0	53.6	55.1	55.6
14.1	43.2	44.4	46.5	48.3	49.6	53.3	54.7	55.3
14.2	42.9	44.0	46.3	48.0	49.3	53.1	54.5	55.1
14.3	42.6	43.8	46.0	47.7	49.1	52.7	54.1	54.8
14.4	42.3	43.5	45.6	47.4	48.7	52.5	53.9	54.5
14.5	42.0	43.2	45.4	47.1	48.4	52.1	53.7	54.2
14.6	41.7	42.9	45.0	46.8	48.1	51.8	53.4	53.8
14.7	41.4	42.6	44.8	46.5	47.9	51.5	53.1	53.6
14.8	41.2	42.3	44.5	46.2	47.5	51.3	52.8	53.3
14.9	40.8	42.0	44.2	45.8	47.3	51.0	52.5	53.0
15	40.6	41.8	43.9	45.6	47.0	50.7	52.1	52.8
15.1	40.3	41.6	43.5	45.3	46.7	50.4	51.9	52.5
15.2	40.0	41.2	43.3	45.0	46.4	50.1	51.7	52.2
15.3	39.7	40.9	43.1	44.8	46.1	49.9	51.4	51.9
15.4	39.5	40.6	42.8	44.5	45.9	49.6	51.1	51.7
15.5	39.3	40.4	42.5	44.1	45.6	49.4	50.8	51.5
15.6	38.9	40.1	42.2	43.9	45.3	49.0	50.6	51.2
15.7	38.7	39.9	41.9	43.7	45.0	48.8	50.3	50.9
15.8	38.5	39.6	41.7	43.4	44.7	48.4	50.0	50.7
15.9	38.2	39.3	41.4	43.1	44.5	48.2	49.8	50.4
16	37.9	39.1	41.1	42.9	44.2	48.0	49.5	50.1
16.1	37.8	38.8	40.9	42.6	44.0	47.8	49.2	49.9
16.2	37.4	38.6	40.7	42.3	43.7	47.5	49.0	49.6
16.3	37.3	38.3	40.4	42.1	43.5	47.2	48.7	49.4
16.4	37.0	38.1	40.2	41.8	43.2	46.9	48.5	49.1
16.5	36.8	37.9	39.9	41.6	43.0	46.7	48.2	48.9
16.6	36.5	37.6	39.6	41.3	42.7	46.4	48.0	48.6
16.7	36.3	37.3	39.3	41.1	42.4	46.2	47.7	48.3
16.8	36.0	37.1	39.1	40.8	42.1	45.9	47.5	48.1
16.9	35.8	36.9	38.8	40.6	41.9	45.7	47.2	47.8
17	35.5	36.6	38.6	40.3	41.6	45.4	47.0	47.5
17.1	35.3	36.4	38.3	40.0	41.4	45.2	46.7	47.3
17.2	35.1	36.2	38.1	39.8	41.1	45.0	46.5	47.1
17.3	34.9	35.9	37.9	39.5	40.9	44.7	46.2	46.8
17.4	34.6	35.7	37.7	39.3	40.7	44.4	46.0	46.5
17.5	34.4	35.5	37.3	39.0	40.4	44.1	45.7	46.4
17.6	34.2	35.2	37.2	38.8	40.2	43.9	45.5	46.1
17.7	34.0	35.0	36.9	38.6	39.9	43.7	45.2	45.9
17.8	33.8	34.7	36.7	38.3	39.6	43.4	45.0	45.7
17.9	33.6	34.6	36.4	38.1	39.5	43.2	44.8	45.4
18	33.3	34.4	36.2	37.9	39.2	43.0	44.5	45.1
18.1	33.1	34.1	36.1	37.7	39.0	42.8	44.3	44.9
18.2	32.9	33.9	35.8	37.4	38.8	42.5	44.1	44.7
18.3	32.7	33.7	35.6	37.2	38.5	42.3	43.8	44.5
18.4	32.4	33.4	35.4	37.0	38.3	42.1	43.6	44.3
18.5	32.3	33.3	35.1	36.8	38.0	41.8	43.4	44.0
18.6	32.0	33.0	34.9	36.5	37.9	41.6	43.2	43.8
18.7	31.8	32.8	34.7	36.3	37.6	41.3	43.0	43.6
18.8	31.6	32.6	34.5	36.1	37.4	41.1	42.7	43.3
18.9	31.4	32.4	34.2	35.9	37.1	40.9	42.5	43.1
19	31.2	32.2	34.0	35.6	37.0	40.6	42.2	42.9
19.1	31.0	32.0	33.8	35.4	36.7	40.4	42.0	42.6
19.2	30.8	31.8	33.6	35.2	36.4	40.2	41.8	42.5
19.3	30.6	31.6	33.3	34.9	36.2	39.9	41.6	42.2
19.4	30.4	31.3	33.2	34.7	36.0	39.7	41.4	42.0
19.5	30.2	31.2	33.0	34.5	35.8	39.5	41.1	41.8
19.6	30.0	30.9	32.7	34.3	35.6	39.3	40.9	41.5
19.7	29.8	30.8	32.6	34.0	35.4	39.0	40.7	41.3
19.8	29.6	30.6	32.3	33.9	35.1	38.8	40.5	41.2
19.9	29.4	30.3	32.1	33.6	35.0	38.6	40.2	40.9
20	29.2	30.1	31.9	33.5	34.7	38.4	40.0	40.6
20.1	29.1	29.9	31.7	33.3	34.5	38.2	39.7	40.5
20.2	28.8	29.8	31.5	33.0	34.3	38.0	39.6	40.3
20.3	28.7	29.6	31.3	32.8	34.1	37.7	39.3	40.1
20.4	28.4	29.4	31.1	32.6	33.8	37.5	39.2	39.9
20.5	28.3	29.2	30.9	32.4	33.7	37.3	38.9	39.7
20.6	28.1	29.0	30.7	32.2	33.4	37.1	38.7	39.5
20.7	27.9	28.8	30.6	32.0	33.2	37.0	38.5	39.1
20.8	27.7	28.6	30.3	31.8	33.0	36.7	38.3	39.0
20.9	27.6	28.5	30.1	31.6	32.9	36.5	38.1	38.8
21	27.4	28.3	30.0	31.4	32.7	36.3	37.9	38.6
21.1	27.2	28.1	29.7	31.3	32.5	36.1	37.7	38.4
21.2	27.0	27.9	29.6	31.1	32.2	35.9	37.6	38.2
21.3	26.9	27.7	29.4	30.9	32.1	35.7	37.3	38.0
21.4	26.7	27.6	29.2	30.7	31.9	35.5	37.1	37.8
21.5	26.5	27.4	29.1	30.5	31.7	35.4	36.9	37.6
21.6	26.4	27.3	28.9	30.4	31.6	35.1	36.7	37.4
21.7	26.2	27.1	28.7	30.1	31.4	35.0	36.5	37.2
21.8	26.0	26.9	28.5	30.0	31.2	34.7	36.4	37.0
21.9	25.9	26.7	28.4	29.8	31.0	34.6	36.1	36.9
22	25.7	26.6	28.2	29.6	30.8	34.4	35.9	36.6
22.1	25.6	26.4	28.0	29.4	30.6	34.2	35.8	36.4
22.2	25.4	26.2	27.8	29.3	30.5	34.0	35.6	36.3
22.3	25.2	26.1	27.7	29.1	30.3	33.8	35.4	36.1
22.4	25.1	25.9	27.5	28.9	30.1	33.6	35.2	35.9
22.5	24.9	25.7	27.3	28.7	29.9	33.4	35.0	35.7
22.6	24.8	25.6	27.1	28.5	29.7	33.3	34.8	35.5
22.7	24.6	25.4	27.0	28.4	29.6	33.0	34.6	35.3
22.8	24.5	25.2	26.8	28.3	29.3	32.9	34.5	35.1
22.9	24.3	25.1	26.7	28.0	29.2	32.7	34.3	34.9
23	24.2	24.9	26.4	27.9	29.0	32.5	34.1	34.7
23.1	24.0	24.7	26.3	27.7	28.8	32.3	33.9	34.6
23.2	23.9	24.6	26.2	27.6	28.7	32.1	33.8	34.4
23.3	23.7	24.5	26.0	27.4	28.5	32.0	33.6	34.2
23.4	23.5	24.3	25.9	27.2	28.4	31.8	33.4	34.0
23.5	23.4	24.1	25.6	27.0	28.2	31.6	33.2	33.9
23.6	23.2	24.0	25.5	26.9	28.0	31.5	33.1	33.7
23.7	23.1	23.9	25.4	26.7	27.8	31.3	32.8	33.6
23.8	22.9	23.7	25.2	26.6	27.7	31.1	32.7	33.4
23.9	22.8	23.6	25.1	26.4	27.6	30.9	32.4	33.2
24	22.6	23.4	24.9	26.2	27.3	30.8	32.3	33.0
24.1	22.5	23.3	24.8	26.0	27.2	30.6	32.2	32.8
24.2	22.4	23.1	24.6	25.9	27.0	30.4	32.0	32.7
24.3	22.2	23.0	24.5	25.7	26.9	30.3	31.8	32.5
24.4	22.1	22.8	24.3	25.6	26.8	30.1	31.6	32.3
24.5	21.9	22.7	24.1	25.5	26.5	29.9	31.5	32.2
24.6	21.8	22.5	24.0	25.3	26.4	29.8	31.3	32.0
24.7	21.6	22.4	23.8	25.1	26.2	29.6	31.1	31.8
24.8	21.5	22.3	23.7	25.0	26.1	29.4	31.0	31.6
24.9	21.4	22.1	23.6	24.8	25.9	29.2	30.8	31.5
25	21.3	22.0	23.4	24.7	25.7	29.1	30.6	31.3
25.1	21.1	21.9	23.2	24.6	25.6	28.9	30.4	31.1
25.2	21.0	21.7	23.1	24.4	25.5	28.7	30.3	31.0
25.3	20.8	21.6	23.0	24.3	25.3	28.6	30.2	30.8
25.4	20.7	21.4	22.8	24.1	25.1	28.4	30.0	30.6
25.5	20.6	21.3	22.7	23.9	25.0	28.3	29.8	30.5
25.6	20.4	21.2	22.6	23.8	24.9	28.1	29.6	30.3
25.7	20.4	21.0	22.4	23.7	24.7	28.0	29.5	30.2
25.8	20.2	21.0	22.3	23.6	24.6	27.8	29.4	30.0
25.9	20.1	20.8	22.1	23.4	24.4	27.7	29.2	29.9
26	20.0	20.7	22.0	23.3	24.3	27.6	29.0	29.7
26.1	19.9	20.5	21.9	23.1	24.1	27.4	28.9	29.6
26.2	19.7	20.4	21.8	23.0	24.0	27.3	28.7	29.4
26.3	19.6	20.3	21.6	22.9	23.8	27.1	28.6	29.3
26.4	19.5	20.2	21.5	22.7	23.7	26.9	28.5	29.1
26.5	19.4	20.0	21.3	22.6	23.6	26.8	28.3	28.9
26.6	19.3	19.9	21.2	22.4	23.5	26.7	28.1	28.8
26.7	19.1	19.8	21.1	22.3	23.3	26.5	28.0	28.6
26.8	19.0	19.7	21.0	22.2	23.1	26.3	27.8	28.5
26.9	18.9	19.5	20.9	22.1	23.0	26.2	27.7	28.3
27	18.8	19.4	20.7	21.9	22.9	26.1	27.5	28.2
27.1	18.6	19.3	20.6	21.8	22.8	25.9	27.4	28.1
27.2	18.5	19.2	20.5	21.7	22.7	25.8	27.2	28.0
27.3	18.4	19.1	20.4	21.6	22.5	25.6	27.1	27.8
27.4	18.3	19.0	20.3	21.4	22.4	25.5	27.0	27.6
27.5	18.2	18.9	20.1	21.3	22.2	25.4	26.8	27.5
27.6	18.1	18.7	20.0	21.1	22.1	25.2	26.7	27.3
27.7	18.0	18.6	19.9	21.0	22.0	25.1	26.5	27.2
27.8	17.9	18.5	19.8	20.9	21.9	24.9	26.4	27.1
27.9	17.7	18.4	19.6	20.8	21.7	24.8	26.2	26.9
28	17.7	18.3	19.5	20.7	21.6	24.6	26.1	26.8
28.1	17.5	18.2	19.4	20.5	21.4	24.5	26.0	26.7
28.2	17.5	18.1	19.3	20.4	21.3	24.4	25.8	26.5
28.3	17.3	17.9	19.2	20.3	21.2	24.3	25.7	26.4
28.4	17.2	17.8	19.0	20.2	21.1	24.2	25.6	26.2
28.5	17.1	17.7	19.0	20.0	21.0	24.1	25.4	26.1
28.6	17.0	17.6	18.8	19.9	20.9	23.9	25.3	26.0
28.7	16.9	17.5	18.7	19.8	20.7	23.8	25.1	25.8
28.8	16.8	17.4	18.6	19.7	20.6	23.6	25.0	25.7
28.9	16.7	17.3	18.5	19.6	20.5	23.4	24.9	25.6
29	16.6	17.2	18.4	19.5	20.4	23.4	24.8	25.4
29.1	16.5	17.1	18.3	19.3	20.3	23.3	24.6	25.3
29.2	16.4	17.0	18.1	19.2	20.2	23.1	24.5	25.2
29.3	16.3	16.9	18.1	19.1	20.0	23.0	24.3	25.0
29.4	16.2	16.8	18.0	19.0	19.9	22.8	24.2	24.9
29.5	16.1	16.7	17.8	18.9	19.8	22.7	24.1	24.8
29.6	16.0	16.6	17.8	18.8	19.7	22.6	24.0	24.6
29.7	15.9	16.5	17.6	18.7	19.6	22.5	23.9	24.5
29.8	15.8	16.4	17.5	18.6	19.4	22.3	23.7	24.3
29.9	15.7	16.3	17.4	18.5	19.4	22.3	23.7	24.3
30	15.6	16.2	17.3	18.4	19.2	22.1	23.5	24.1
